#step up uk temperature
0 -8.209277334390772e-18 5.836710936068702e-20 88.11459746480529
10 -8.292097835226244e-18 1.2046730809698672e-19 181.86489748941233
20 -8.396295184841119e-18 2.0206508086016887e-19 305.0499409120907
30 -8.477712230640963e-18 2.8347893765151166e-19 427.95733341109855
40 -8.525704989985492e-18 2.7286163562348717e-19 411.9287977407717
50 -8.556642484438726e-18 1.8035696838677018e-19 272.2780319848584
60 -8.567619472418868e-18 7.797481668456042e-20 117.71560489818904
70 -8.578343581928767e-18 2.266029430995867e-20 34.209381506580115
80 -8.587155710381214e-18 1.6270202073750684e-20 24.562503130662265
90 -8.594582024537115e-18 1.569287961004077e-20 23.69094144027894
100 -8.600486276164488e-18 1.5415967653500092e-20 23.27289802762695
110 -8.604052945328826e-18 1.5692257074682357e-20 23.69000162240694
120 -8.605019029782921e-18 1.4227139382315192e-20 21.478169357359892
130 -8.605877166799194e-18 3.0507801997919926e-21 4.605646436884047
140 -8.607520040888517e-18 1.6283629327345978e-21 2.4582773742974
150 -8.607889952157312e-18 1.6472681406033363e-21 2.4868178451137326
160 -8.60813770048855e-18 9.04817110995635e-22 1.3659678608025891
170 -8.60832882638032e-18 4.976134247271943e-22 0.7512279962668997
180 -8.608467893017681e-18 5.853715982887576e-22 0.8837131616678103
190 -8.608561528047033e-18 4.986294880076776e-22 0.7527619082241509
200 -8.609754953401776e-18 4.234851400639001e-22 0.6393193539612019
210 -8.609830882777445e-18 2.892014041564744e-22 0.43659632269999155
220 -8.609881747248197e-18 1.628992847566624e-22 0.2459228332679082
230 -8.608808625972734e-18 1.1012652303265217e-22 0.16625380892610533
240 -8.608837940327851e-18 9.290695353807598e-23 0.14025808203211954
250 -8.608864484375029e-18 7.77559031780254e-23 0.11738511953204318
260 -8.608887965243442e-18 9.968199861128509e-23 0.15048610901462123
270 -8.608906705861482e-18 8.922167585977531e-23 0.1346945589670521
280 -8.608921841638453e-18 6.098733900249527e-23 0.09207025815594093
290 -8.610042158665075e-18 5.0131149288765914e-23 0.07568108286347511
300 -8.610054211370937e-18 4.641312977501794e-23 0.07006813069900052
310 -8.610066396250106e-18 4.890875772964107e-23 0.07383568497832288
320 -8.61007811077929e-18 5.848738098947459e-23 0.08829616695270923
330 -8.610087769357555e-18 3.402828606353274e-23 0.05137120480605788
340 -8.610095287125661e-18 2.862011338022082e-23 0.04320669290492274
350 -8.610101308824532e-18 2.4647955036599905e-23 0.037210077048007106
360 -8.610105778755678e-18 2.166901599959319e-23 0.032712886472815804
370 -8.610109624609696e-18 1.0129045487974255e-23 0.015291433405758234
380 -8.610113302068219e-18 1.1608929820649933e-23 0.017525558304121277
390 -8.610116362542405e-18 1.3007821831073267e-23 0.019637412184591287
400 -8.610118911918364e-18 7.826941858408348e-24 0.011816035414263812
410 -8.610121383258881e-18 8.105825901792102e-24 0.012237056011159575
420 -8.610123647177007e-18 8.633266222935777e-24 0.013033312534625268
430 -8.61012555829882e-18 8.205965935758002e-24 0.012388233598668481
440 -8.610127344788748e-18 9.024532834754357e-24 0.013623992806090515
450 -8.61012902441681e-18 5.396219829041282e-24 0.008146467133214496
460 -8.61013061964801e-18 6.815178429256255e-24 0.010288614778466569
470 -8.61013206415819e-18 7.592412892627216e-24 0.011461975985246401
480 -8.610133371774019e-18 6.494038241880049e-24 0.009803801693659495
490 -8.61013465540012e-18 4.555103161170668e-24 0.006876665400318038
500 -8.610135849192402e-18 5.746041615536204e-24 0.008674579733599341
510 -8.610136898148255e-18 4.513693433780463e-24 0.006814150715248284
520 -8.610137919021878e-18 4.298159244502236e-24 0.006488766975395887
530 -8.610138853845134e-18 4.102548352727017e-24 0.006193460677426052
540 -8.610139669646852e-18 4.4979655249439396e-24 0.006790406891521648
550 -8.610140392002404e-18 3.746728420952737e-24 0.005656292906027684
560 -8.610141111635286e-18 3.8673005298200956e-24 0.005838316017240483
570 -8.610141845528767e-18 3.610006405207639e-24 0.005449888896750662
580 -8.610142583531636e-18 3.357471808998386e-24 0.005068647054647322
590 -8.610143248081692e-18 2.6637945375013303e-24 0.004021428951541863
600 -8.610143738577115e-18 2.0186325161931695e-24 0.0030474524700983842
610 -8.610144166406373e-18 1.8154653283981832e-24 0.002740738720407885
620 -8.590079867061072e-18 3.626346943367149e-24 0.005474557583585672
630 -8.59016247354498e-18 8.622240562662999e-23 0.13016667516097524
640 -8.590346492361031e-18 2.7021818487659957e-22 0.40793808103351387
650 -8.59170758259154e-18 5.234452039469225e-22 0.790225247504412
660 -8.594213755658767e-18 8.1375940563402e-22 1.2285015181673007
670 -8.596712148899608e-18 1.0964041825196897e-21 1.6551995509053288
680 -8.596928408642196e-18 1.3126391534425538e-21 1.9816412340618266
690 -8.597038342751647e-18 9.948699031160074e-22 1.501917124269335
700 -8.597062767738309e-18 9.3485272071938e-24 0.014113114745159723
710 -8.597078011656096e-18 2.4572111146019658e-23 0.0370955784209234
720 -8.597088044554224e-18 3.2093053317100895e-23 0.048449657785478405
730 -8.597091648535055e-18 9.188624075926475e-24 0.013871715090468714
740 -8.597095551718018e-18 7.704959001667577e-24 0.011631882550826656
750 -8.597100092204802e-18 1.2195188386710112e-23 0.018410610487183142
760 -8.597104682464683e-18 1.648887880931403e-23 0.02489263105270838
770 -8.597109460610979e-18 2.0255829325378547e-23 0.030579452483965198
780 -8.597114737909094e-18 2.5532856641099693e-23 0.038545979228713306
790 -8.597120534622897e-18 3.1329339750980467e-23 0.047296708561262786
800 -8.597126500851396e-18 3.7171113063862135e-23 0.05611581078481603
810 -8.597132114739044e-18 4.262771089296801e-23 0.06435342828044688
820 -8.597136992882081e-18 4.5417121023843006e-23 0.0685644942992799
830 -8.597140905014396e-18 3.300311612948781e-23 0.04982354488147315
840 -8.597143298588077e-18 1.182601954719158e-23 0.017853290379214345
850 -8.597145100585571e-18 7.116820430081403e-24 0.0107439921951712
860 -8.597146786566068e-18 8.382550955708516e-24 0.01265481726405271
870 -8.59714844930362e-18 6.2180109210203985e-24 0.009387093781733694
880 -8.597150111351748e-18 6.394219922413749e-24 0.009653109786252641
890 -8.597151640030666e-18 5.211379848674124e-24 0.007867421269133642
900 -8.597152886846205e-18 4.284585378559409e-24 0.006468275028018431
910 -8.597154019268584e-18 4.363521603671369e-24 0.006587442034528033
920 -8.597155077494858e-18 4.242227787966361e-24 0.006404329390045835
930 -8.597156071122324e-18 4.9325967389216774e-24 0.007446553047889006
940 -8.597157071500499e-18 5.913350871489139e-24 0.008927160132079014
950 -8.597158160458586e-18 6.487774475424981e-24 0.009794345524494236
960 -8.597159390323063e-18 6.366489056880112e-24 0.009611245556884227
970 -8.597160750382468e-18 7.55827350449516e-24 0.01141043705388762
980 -8.59716220398695e-18 8.137470943141053e-24 0.012284829322374778
990 -8.59716366765766e-18 9.594969106198481e-24 0.014485158674816548
1000 -8.59716510592915e-18 1.0603424197842053e-23 0.0160075848397374
1010 -8.597166521182183e-18 1.0665690457307361e-23 0.016101585835307006
1020 -8.597167878436879e-18 1.041278798037652e-23 0.015719788617718177
1030 -8.597169142030629e-18 8.168736825874145e-24 0.012332030232297925
1040 -8.597170032352933e-18 6.5054637310252244e-24 0.009821050318576729
1050 -8.59717060993863e-18 2.048074378061507e-24 0.003091899725334401
1060 -8.577346005887066e-18 4.1209199923719314e-24 0.00622119564065811
1070 -8.577430600716556e-18 8.870497712849673e-23 0.13391451861186102
1080 -8.57761526692219e-18 2.733479276954587e-22 0.41266293432285434
1090 -8.577863498709477e-18 5.215489854289842e-22 0.7873625987756405
1100 -8.578127026993626e-18 7.850451684441641e-22 1.1851527301391367
1110 -8.578355449779122e-18 1.0134404680698934e-21 1.5299523974485107
1120 -8.578505724836051e-18 1.1636977633328334e-21 1.7567901016498089
1130 -8.578557035107998e-18 6.956533240840287e-22 1.0502012742814444
1140 -8.578563716289116e-18 7.75944283140555e-24 0.011714134709247509
1150 -8.578571432826093e-18 1.5469353138651033e-23 0.02335349205714226
1160 -8.578574028735276e-18 5.119689386406757e-24 0.007728999677546433
1170 -8.558608528622218e-18 5.536625160508402e-23 0.08358431703666067
1180 -8.558775552608394e-18 2.2236901045679397e-22 0.335702008539846
1190 -8.559021504774433e-18 4.682906136305026e-22 0.706960467437353
1200 -8.559298384472966e-18 7.451366167489229e-22 1.1249043127248233
1210 -8.559553243896559e-18 9.999653527876763e-22 1.5096095301746322
1220 -8.55973794851575e-18 1.184647714503242e-21 1.7884174433925755
1230 -8.559819289602796e-18 7.490561825285053e-22 1.130821531594966
1240 -8.539618410697456e-18 3.317895895105432e-23 0.05008900807828249
1250 -8.539759628891953e-18 1.74378060858891e-22 0.26325190347054805
1260 -8.539984415805051e-18 3.991366059432269e-22 0.6025613012427943
1270 -8.540248256597987e-18 6.629458102628243e-22 1.000823988923346
1280 -8.540501443850445e-18 9.16103540304394e-22 1.383006552391899
1290 -8.54069752969455e-18 1.1121662200028349e-21 1.6789948973472748
1300 -8.540803187686657e-18 7.679033021119917e-22 1.1592743087439488
1310 -8.520121158821675e-18 2.0728625370809866e-23 0.031293214629845814
1320 -8.520254399895054e-18 1.5395164614446892e-22 0.23241492473500744
1330 -8.520484999348066e-18 3.8452070087023157e-22 0.580496227159166
1340 -8.520765262568046e-18 6.647477846623119e-22 1.0035443609032486
1350 -8.52103848056355e-18 9.37931189336952e-22 1.415958921100471
1360 -8.521250446768335e-18 1.1498710709778281e-21 1.7359164718868179
1370 -8.521363916530668e-18 7.138799787879193e-22 1.0777173592812792
1380 -8.521386242728059e-18 3.3782060184622376e-24 0.00509994869936932
1390 -8.521394314760143e-18 1.1444899934596853e-23 0.01727792864522472
1400 -8.521399514227069e-18 1.1339261673169556e-23 0.017118450593553075
1410 -8.500244728210913e-18 1.269673012935537e-23 0.01916776891508963
1420 -8.50035302354556e-18 1.2097778026960637e-22 0.18263553784662798
1430 -8.500553954399259e-18 3.2188229728004627e-22 0.48593341980683313
1440 -8.500806196968814e-18 5.740922434165842e-22 0.866685150085423
1450 -8.501058554345427e-18 8.264174081888425e-22 1.247610821541127
1460 -8.501260524718828e-18 1.0283622956328635e-21 1.5524793110399508
1470 -8.501372468771122e-18 9.702232914143648e-22 1.4647090752028455
1480 -8.479591232447722e-18 7.158774941202793e-24 0.010807329319448661
1490 -8.479681457688472e-18 9.737118495145846e-23 0.14699756182285395
1500 -8.479860609959858e-18 2.764996610570382e-22 0.41742098589528714
1510 -8.480091389555292e-18 5.072499707127115e-22 0.7657759219696731
1520 -8.480327778487973e-18 7.436097245129209e-22 1.1225992217888299
1530 -8.480523912601545e-18 9.397196708897224e-22 1.4186589234446294
1540 -8.480643259797962e-18 7.144890860344448e-22 1.0786369052452367
1550 -8.457984144725318e-18 3.916005791313763e-24 0.005911844491717638
1560 -8.458068547353552e-18 8.830620884146742e-23 0.13331251334762595
1570 -8.458246227849374e-18 2.659618998246164e-22 0.4015125299284668
1580 -8.45847835155197e-18 4.9805446891751875e-22 0.7518938238489111
1590 -8.45871604833315e-18 7.357201450198267e-22 1.1106886247279992
1600 -8.458909745577908e-18 8.967991883275667e-22 1.3538635089486213
1610 -8.459015344499196e-18 6.032545461705555e-22 0.9107103655956454
1620 -8.459045653901729e-18 1.7949798235997145e-22 0.2709812535627588
1630 -8.459054227337875e-18 1.6702266266877572e-23 0.025214773953619523
1640 -8.45905869349649e-18 9.535158764645884e-24 0.014394865284791492
1650 -8.459060628230058e-18 4.954399200810519e-24 0.007479467392527957
1660 -8.435437028415444e-18 4.340584326310165e-23 0.06552814502279838
1670 -8.435574351594415e-18 1.8071028879527215e-22 0.27281142632136496
1680 -8.43577731953186e-18 3.836508044472412e-22 0.5791829777283231
1690 -8.436002907370257e-18 6.092084453999351e-22 0.9196987400361339
1700 -8.436203767190565e-18 8.100415840688316e-22 1.2228888648382121
1710 -8.436338157015152e-18 9.444137588627122e-22 1.4257454089110995
1720 -8.4363819384577e-18 5.103540897784933e-22 0.7704620920569041
1730 -8.310493075581214e-18 2.8814922741647286e-23 0.04350078916311487
1740 -8.310578573605453e-18 1.1429948683025204e-22 0.17255357311330322
1750 -8.31180905035912e-18 2.3681304992760017e-22 0.3575076236829713
1760 -8.311942630442743e-18 3.7037653757221716e-22 0.5591433236295549
1770 -8.313169096476765e-18 4.711561591269933e-22 0.7112864721120069
1780 -8.314356207798596e-18 4.304846465991534e-22 0.6498862418465481
1790 -8.314389462611611e-18 2.185370436464685e-22 0.3299170344904416
1800 -8.314396900153053e-18 1.1707372128780488e-23 0.017674172899728998
1810 -8.314400964073346e-18 6.636091876315422e-24 0.010018254644195987
1820 -8.314404161837294e-18 9.833162414890754e-24 0.014844750022480004
1830 -8.314406114132439e-18 6.818877606819107e-24 0.010294199285656865
1840 -8.314407506118439e-18 3.842078720039049e-24 0.0058002396135855205
1850 -8.314408912860449e-18 3.710851357582996e-24 0.005602130672679644
1860 -8.314410185030058e-18 4.451362608343491e-24 0.006720052246895367
1870 -8.314411323207177e-18 5.513290882768128e-24 0.008323204835096812
1880 -8.31441240649345e-18 6.5406277618716336e-24 0.009874136113936645
1890 -8.31441356227349e-18 5.537359245136019e-24 0.008359539923212589
1900 -8.314414813700843e-18 6.671779176057446e-24 0.01007213039863745
1910 -8.314416106247757e-18 7.546256262983308e-24 0.011392295083006203
1920 -8.314417366983021e-18 8.647238453667329e-24 0.013054405878120968
1930 -8.314418553828753e-18 8.699947259291773e-24 0.013133978350380092
1940 -8.31441959013133e-18 8.883496696582814e-24 0.013411075930831544
1950 -8.314420434418039e-18 6.1419002138178425e-24 0.009272192351778143
1960 -8.314421149352305e-18 4.2527016196287196e-24 0.006420141333980555
1970 -8.314421797913063e-18 3.1092721812882023e-24 0.004693949549046199
1980 -8.314422434850107e-18 2.8563014972371532e-24 0.004312049361771065
1990 -8.31442306570428e-18 3.4768452557466855e-24 0.005248860591405021
2000 -8.314423655805051e-18 3.0207365171430638e-24 0.0045602906357836105
2010 -8.314424160563763e-18 3.185624813617719e-24 0.00480921620413303
2020 -8.314424563925554e-18 2.4214084056737376e-24 0.003655507858806971
2030 -8.290912155080205e-18 1.7735436092420955e-24 0.002677451100908961
2040 -8.290960980123952e-18 5.039949334091514e-23 0.07608619163785499
2050 -8.291084368692917e-18 1.7376994064645452e-22 0.26233384759428524
2060 -8.291253965743902e-18 3.433425644271484e-22 0.5183311661037868
2070 -8.29143155073546e-18 5.209028154444458e-22 0.7863871006105764
2080 -8.29157840915572e-18 6.677418125253437e-22 1.0080643305032362
2090 -8.291664365224227e-18 6.25105461702992e-22 0.9436978588511352
2100 -8.291684816340908e-18 7.405517660685254e-24 0.011179827386300203
2110 -8.291690699079549e-18 7.660860284146574e-24 0.011565308399979731
2120 -8.291696673658958e-18 1.3632659254516435e-23 0.020580705396311044
2130 -8.291699003063242e-18 6.5286568787578696e-24 0.009856064128559586
2140 -8.270804520343684e-18 3.817420835212337e-23 0.05763014545912345
2150 -8.270915446900527e-18 1.490852210671905e-22 0.22506826851930933
2160 -8.271076911449895e-18 3.1052728231280736e-22 0.46879118706643624
2170 -8.271253656196566e-18 4.872476552239226e-22 0.7355791896496416
2180 -8.271407495860541e-18 6.410664050371546e-22 0.9677934858652697
2190 -8.271505723179464e-18 7.392807322956384e-22 1.116063907451145
2200 -8.271532735255073e-18 6.356377584808154e-23 0.09595980653393953
2210 -8.248649762403255e-18 3.3549555436532136e-23 0.050648483448870976
2220 -8.248751031114407e-18 1.3480360609844296e-22 0.2035078594481325
2230 -8.248897948230806e-18 2.8170033322774336e-22 0.42527224219164156
2240 -8.24905851880551e-18 4.422491667455785e-22 0.6676466889275038
2250 -8.249198596025275e-18 5.823074441845017e-22 0.8790873251577623
2260 -8.249288678514385e-18 5.5841593870798795e-22 0.8430192311412862
2270 -8.249315362748156e-18 2.402775993365802e-22 0.36273792170377445
2280 -8.224272075122514e-18 2.764843284141597e-23 0.04173978387894923
2290 -8.224366540060738e-18 1.2209927530917892e-22 0.18432861610685225
2300 -8.224506931115862e-18 2.6247014339035923e-22 0.39624115849993846
2310 -8.224661570279105e-18 4.1708738827794667e-22 0.6296609122553543
2320 -8.224794574386711e-18 5.410225649585185e-22 0.8167611185967972
2330 -8.224875304727654e-18 5.643100718437282e-22 0.8519173789911356
2340 -8.22490136795306e-18 2.1402939467302837e-22 0.3231120088662868
2350 -8.224906365300824e-18 1.2201038822208536e-23 0.01841944266637762
2360 -8.224908713200069e-18 4.860152049840652e-24 0.007337186065580695
2370 -8.224910114456052e-18 4.857431391604767e-24 0.0073330787916738634
2380 -8.197627027425477e-18 2.0812175178505325e-23 0.031419346585907795
2390 -8.197707933736493e-18 1.0170664485588639e-22 0.15354264018098793
2400 -8.197832699326361e-18 2.264539969678911e-22 0.34186895677519796
2410 -8.197972748917223e-18 3.664832393693819e-22 0.5532657599175451
2420 -8.198096226896713e-18 4.899434846202444e-22 0.7396489804049584
2430 -8.19817541200681e-18 5.6911749573457535e-22 0.8591749633674145
2440 -8.198196583836331e-18 2.3222036152606836e-22 0.35057421727969257
2450 -8.168601389368094e-18 2.4961668282564526e-23 0.03768367796280877
2460 -8.16867767380001e-18 1.0123466395911452e-22 0.15283010863392893
2470 -8.168787958437733e-18 2.115033470228651e-22 0.3192985311335524
2480 -8.16890722221927e-18 3.3075021849394216e-22 0.4993209820258789
2490 -8.169008897010807e-18 4.290810456122938e-22 0.6477672790040667
2500 -8.169069610105622e-18 3.553130292092025e-22 0.5364025199414288
2510 -8.169084825813297e-18 5.864610701742353e-23 0.08853578957944373
2520 -8.137018043569422e-18 2.140822020224195e-23 0.03231917301063097
2530 -8.137088387242199e-18 9.174127138022637e-23 0.13849829616580067
2540 -8.137192266304633e-18 1.956049205539247e-22 0.29529728344493467
2550 -8.137305493829458e-18 3.0507227530471944e-22 0.46055597117258373
2560 -8.13740107479117e-18 3.9672491662229267e-22 0.5989204659152969
2570 -8.13745584286175e-18 3.6325438226178257e-22 0.5483912775691162
2580 -8.137470242807848e-18 1.714884908991697e-23 0.02588896299806306
2590 -8.137472277347403e-18 2.388205871623453e-24 0.003605383260301107
2600 -8.137473670867221e-18 2.945874401320922e-24 0.004447274156583517
2610 -8.137474446507554e-18 2.8690660907632672e-24 0.004331319581466285
2620 -8.102893833640082e-18 2.4506801665336425e-23 0.03699698319042335
2630 -8.102960873737091e-18 9.153679400829074e-23 0.13818960448111525
2640 -8.103055373755949e-18 1.8602251451112097e-22 0.2808310907474652
2650 -8.103154949068238e-18 2.8558282016053095e-22 0.4311334845418644
2660 -8.103236123761974e-18 3.6674540298718954e-22 0.5536615383260712
2670 -8.103279959070141e-18 4.045791847311304e-22 0.6107777547269481
2680 -8.066113736065117e-18 5.8459064733365595e-24 0.00882534189815302
2690 -8.06614729461878e-18 3.9399612025598705e-23 0.05948009061835553
2700 -8.066212935398645e-18 1.0071212302288176e-22 0.15204124852488188
2710 -8.06629525429832e-18 1.830186065945616e-22 0.2762962056077319
2720 -8.066374808514268e-18 2.625612480184712e-22 0.3963786956800592
2730 -8.066433162686055e-18 3.183415409636146e-22 0.48058807512622975
2740 -8.066458564285815e-18 1.8509853462162164e-22 0.27943619357128874
2750 -8.026630877126998e-18 8.203563229460795e-24 0.012384606324669074
2760 -8.026665848375543e-18 3.8783489601982186e-23 0.05854995410927263
2770 -8.026729238224589e-18 1.0216338161703786e-22 0.1542321582382818
2780 -8.026805891124425e-18 1.7880429939292702e-22 0.26993402686130286
2790 -8.026877089109188e-18 2.4999143542201384e-22 0.3774025293206731
2800 -8.02692586879735e-18 2.9655193713272257e-22 0.4476931418066464
2810 -8.026943362744243e-18 1.6754297009156094e-22 0.2529332277952309
2820 -7.984439502106948e-18 1.0417849131516474e-23 0.015727429244439123
2830 -7.984474594737148e-18 4.150171456944817e-23 0.06265355460363553
2840 -7.984531986782852e-18 9.888467613874455e-23 0.1492824217070419
2850 -7.984597639051617e-18 1.6452684915243214e-22 0.24837990512142535
