step up uk temperature
1 -1.6420015231505507e-17 1.3603974554748648e-19 102.68700599900852
11 -1.6602820659632647e-17 2.6856653883393654e-19 202.72232701836998
21 -1.680932574884555e-17 4.406387407803452e-19 332.60774515424606
31 -1.6955808395655572e-17 5.687159080599111e-19 429.28435089063345
41 -1.7045260001544184e-17 5.37233939983524e-19 405.5207880310417
51 -1.7110799669683438e-17 3.790362372244748e-19 286.1082708518077
61 -1.7139559850300666e-17 1.616537667452726e-19 122.02126113018765
71 -1.715675851822302e-17 4.149541203292513e-20 31.322019952389137
81 -1.7178972938514514e-17 3.4618781382130425e-20 26.131326526366564
91 -1.7194287898785803e-17 3.867437114348233e-20 29.192611068449825
101 -1.7206664399009752e-17 3.7779227319146516e-20 28.516928833896827
111 -1.721251026723888e-17 3.63108797564579e-20 27.40857469539395
121 -1.721441692403869e-17 2.0948533294069904e-20 15.812600614485133
131 -1.7214263272667736e-17 9.514428351288813e-21 7.181784685453512
141 -1.7217692969637994e-17 4.407991907423071e-21 3.327288577463067
151 -1.7218487693191882e-17 2.9056108398230827e-21 2.1932448972094525
161 -1.722013189184212e-17 2.0584516017460204e-21 1.5537829119459696
171 -1.721940547386146e-17 1.3857187185718964e-21 1.0459833322553567
181 -1.7219690177898845e-17 9.980592378346256e-22 0.7533659705877307
191 -1.721988703273694e-17 8.081086037575168e-22 0.6099853591164831
201 -1.72200304699479e-17 6.539760429366619e-22 0.49364133675774596
211 -1.7220146965473296e-17 4.086471024950419e-22 0.3084594674630449
221 -1.722023775159452e-17 3.491246606137436e-22 0.2635300880236591
231 -1.7220304910811207e-17 2.577930537340458e-22 0.1945901673717133
241 -1.7220361319804578e-17 2.0882535609608247e-22 0.15762783521745355
251 -1.7219302924749392e-17 1.736445274354914e-22 0.13107225802799774
261 -1.7219343115190937e-17 1.5282905783279523e-22 0.11536009800180799
271 -1.721937468315267e-17 1.3013782982898675e-22 0.09823205753999605
281 -1.7219401939012875e-17 1.3574950853003285e-22 0.10246792612472287
291 -1.721942596005146e-17 1.1362537921182237e-22 0.0857679492842862
301 -1.7219448180718827e-17 9.417989360255465e-23 0.0710898955333293
311 -1.7219468225101096e-17 6.871624613577412e-23 0.0518691471435493
321 -1.7219485396870152e-17 6.151244971779097e-23 0.046431498881182795
331 -1.7219498605257638e-17 5.002169077989093e-23 0.03775791876501429
341 -1.7219509714569994e-17 4.5097129977194747e-23 0.034040708014186856
351 -1.7219520274608144e-17 3.620365207027726e-23 0.027327635922612666
361 -1.72195302002913e-17 4.101746176408045e-23 0.030961248312258795
371 -1.7219539619061662e-17 3.8804053050192807e-23 0.0292904989811238
381 -1.7219549115713704e-17 4.3683107033650026e-23 0.03297335977781554
391 -1.7219558799500176e-17 4.363027331626327e-23 0.032933479254425774
401 -1.7219568232150197e-17 3.7986856969548355e-23 0.028673654113487587
411 -1.7219577247344364e-17 3.5466701179435195e-23 0.026771362605249996
421 -1.721958623460883e-17 3.70822367342461e-23 0.027990818790946635
431 -1.721959482190966e-17 3.965837964014603e-23 0.02993537110518269
441 -1.7219602652982264e-17 3.415628954454832e-23 0.02578222338809505
451 -1.7218503145457765e-17 3.3702957870729757e-23 0.025440034624645048
461 -1.7218512542528578e-17 3.721027570420156e-23 0.02808746656416181
471 -1.7218522575853106e-17 4.3232429695345784e-23 0.03263317458887816
481 -1.7218533199616934e-17 4.802444451668345e-23 0.03625033553493618
491 -1.7218544151317316e-17 5.64692311838878e-23 0.0426247216061955
501 -1.7217448101858746e-17 6.159138575668332e-23 0.04649108224387328
511 -1.7217460827930373e-17 5.723676072560956e-23 0.043204076634669054
521 -1.721747353130009e-17 6.178636642550623e-23 0.04663825968108864
531 -1.7217486691389902e-17 6.632608140972425e-23 0.05006497690951408
541 -1.721750075962599e-17 7.509536365435814e-23 0.05668430227533072
551 -1.72175156939641e-17 8.52847983888843e-23 0.06437560264861436
561 -1.7217530720530775e-17 8.611976526575868e-23 0.06500586146268017
571 -1.7217544432534656e-17 7.89431034525504e-23 0.05958869523894203
581 -1.7217556385288063e-17 4.907418559822533e-23 0.0370427125590469
591 -1.7217567068406017e-17 4.812481254271685e-23 0.03632609642415221
601 -1.7217577011509225e-17 4.018582200736839e-23 0.03033350091135899
611 -1.721758648694434e-17 3.4989818129171685e-23 0.02641139653470085
621 -1.7217595758703262e-17 3.488171086244744e-23 0.026329793827330493
631 -1.721760509638988e-17 3.6773448941705643e-23 0.027757736218074914
641 -1.7217614599323326e-17 3.904966598075853e-23 0.029475895214944543
651 -1.7217624349154108e-17 3.5674125647752583e-23 0.026927933007059618
661 -1.7217634484063413e-17 3.8838362900929435e-23 0.02931639711724746
671 -1.7217644632278376e-17 4.673253932267026e-23 0.035275165551532504
681 -1.721765483389089e-17 4.6558248851238303e-23 0.03514360571500476
691 -1.7217665628441967e-17 5.1882009306054326e-23 0.03916214470565695
701 -1.7217677340376456e-17 5.732751022098313e-23 0.043272577159558526
711 -1.7217689815629844e-17 6.787426356670273e-23 0.05123359266810291
721 -1.7217703341534852e-17 7.630912337576566e-23 0.05760048563991973
731 -1.721771836350565e-17 9.023844203099385e-23 0.06811476602581057
741 -1.721773447854055e-17 9.344369480983088e-23 0.07053418992287959
751 -1.7217750741456812e-17 8.820982130396938e-23 0.06658350038041168
761 -1.7217765429615863e-17 7.531687359219266e-23 0.05685150482502466
771 -1.7217779124371367e-17 7.448439944551587e-23 0.05622312760078191
781 -1.7217792410578228e-17 6.94548456843469e-23 0.052426664918740117
791 -1.7217805445825033e-17 6.463115532201134e-23 0.04878559429499649
801 -1.72178178055305e-17 6.514472689371487e-23 0.04917325399585966
811 -1.7217830715517483e-17 6.573689104495557e-23 0.049620237805672984
821 -1.7217843717067e-17 6.337495796012317e-23 0.047837377687291044
831 -1.7217855449064087e-17 6.022343978706274e-23 0.045458514332022
841 -1.7217866366093277e-17 4.2160616827351013e-23 0.031824137097940075
851 -1.7217877131202186e-17 4.104761067190085e-23 0.030984005640021777
861 -1.7217888185851587e-17 4.043594293332041e-23 0.030522299919474947
871 -1.7216791854045572e-17 4.9975234063693735e-23 0.03772285179928573
881 -1.7216804398600914e-17 5.693084778536076e-23 0.0429731640891914
891 -1.7216818495184146e-17 5.941870519585087e-23 0.04485107578189227
901 -1.7216834366117863e-17 7.289271996001768e-23 0.05502167871378146
911 -1.7216851828692228e-17 8.692483147130594e-23 0.06561355032556307
921 -1.7216870443511864e-17 1.0296765328207304e-22 0.07772316823827977
931 -1.7216890491230383e-17 1.1720620803425595e-22 0.08847086959107484
941 -1.721691187494885e-17 1.2877868551633718e-22 0.097206133390955
951 -1.721693361514735e-17 1.361167754462229e-22 0.1027451505481755
961 -1.7216955336831822e-17 1.310846590195505e-22 0.09894675348697955
971 -1.7216976741416668e-17 1.3343880211349508e-22 0.1007237334793894
981 -1.7216996529136857e-17 1.2562530440521738e-22 0.09482586383244065
991 -1.721701390399165e-17 1.288909339487213e-22 0.09729086197820147
1001 -1.7217030231577484e-17 9.204461836629124e-23 0.06947812376682612
1011 -1.7215939318252767e-17 5.922457709796699e-23 0.044704541891581365
1021 -1.7215956699278552e-17 5.860739898381245e-23 0.044238676769182105
1031 -1.721597380890253e-17 7.176977666507383e-23 0.0541740463957381
1041 -1.7215990815419563e-17 7.091895254869114e-23 0.053531818047019286
1051 -1.721600737763783e-17 7.165676653622056e-23 0.05408874285644668
1061 -1.7216024181880697e-17 7.316508984577903e-23 0.055227271924652044
1071 -1.721604132542858e-17 6.481368646749957e-23 0.04892337444708603
1081 -1.7216057629843378e-17 7.591042415019775e-23 0.0572995351375285
1091 -1.7216073707443827e-17 6.391371462783382e-23 0.048244047877290024
1101 -1.7216090619126084e-17 6.844842345529319e-23 0.051666986303814305
1111 -1.721610852592605e-17 7.389545893881112e-23 0.055778577097532554
1121 -1.721612655097226e-17 7.695427749044968e-23 0.05808746791247711
1131 -1.721614424921643e-17 8.883399680238706e-23 0.06705464734479699
1141 -1.7215056138164433e-17 8.732007096323185e-23 0.0659118893140337
1151 -1.7215078025137433e-17 1.072205139585474e-22 0.08093335896629485
1161 -1.7215102056612904e-17 1.1421134470982587e-22 0.08621025415898692
1171 -1.7212913280298652e-17 1.316112705699898e-22 0.0993442561669609
1181 -1.7212944374799765e-17 1.438213695549518e-22 0.108560816391117
1191 -1.7212976820098686e-17 1.553476371043014e-22 0.11726119950505842
1201 -1.7211901963419696e-17 1.5907145983191467e-22 0.12007205603254428
1211 -1.7211935374350497e-17 1.7217944121763367e-22 0.12996636565340705
1221 -1.7211968462041007e-17 1.4800297767106415e-22 0.11171722348359311
1231 -1.7210893995878755e-17 1.5242833229115158e-22 0.11505761797339341
1241 -1.721092657347929e-17 1.4704207392714046e-22 0.11099190362857825
1251 -1.7210957460438056e-17 1.198218951559771e-22 0.09044527110203585
1261 -1.7210988476251736e-17 1.285532736645009e-22 0.09703598555593365
1271 -1.7211020367098615e-17 1.2284110688808932e-22 0.09272426546504327
1281 -1.7211052178369048e-17 1.3628499636531125e-22 0.10287212889893664
1291 -1.7211082454911736e-17 1.5242892330500736e-22 0.11505806408892465
1301 -1.7211111133087203e-17 1.4480511976203554e-22 0.10930338146288915
1311 -1.7211138843526106e-17 1.3598344179634875e-22 0.10264450618685746
1321 -1.7211167572293884e-17 1.184252508463697e-22 0.08939104079587085
1331 -1.721119645952623e-17 1.1950474751042875e-22 0.0902058782536449
1341 -1.721122638540178e-17 1.2374094425676127e-22 0.0934034905319756
1351 -1.7211256806094333e-17 1.4069360884220297e-22 0.10619988590142133
1361 -1.7211287239665476e-17 1.544842958955117e-22 0.11660952286798891
1371 -1.721131836395022e-17 1.575167563954175e-22 0.11889851781055065
1381 -1.7211348994989016e-17 1.6403275649352274e-22 0.12381699614547309
1391 -1.7211379609117586e-17 1.5790203137282139e-22 0.11918933527537846
1401 -1.721141134158255e-17 1.3664453383969766e-22 0.10314351890073797
1411 -1.7211443222141508e-17 1.4071937261808995e-22 0.106219333196022
1421 -1.7211473655119434e-17 1.5135341797167918e-22 0.11424623941098973
1431 -1.7211502777377186e-17 1.216251033611465e-22 0.09180638840666253
1441 -1.7211530338339357e-17 1.1900963685271536e-22 0.08983215342143369
1451 -1.7211557829729853e-17 1.1809205228253606e-22 0.08913953221809787
1461 -1.7211586132267577e-17 1.1838158089257579e-22 0.08935807736456505
1471 -1.721161484446651e-17 1.2486892327372283e-22 0.09425492396869176
1481 -1.7211643242374685e-17 1.1649268972471457e-22 0.08793228391056353
1491 -1.7211669586285533e-17 1.0414177456182811e-22 0.07860943128157315
1501 -1.721169622781594e-17 1.1108193942317726e-22 0.08384808229406496
1511 -1.7211722713686834e-17 9.180266825167887e-23 0.06929549233973345
1521 -1.7211749431560075e-17 1.0256275846924568e-22 0.07741754111507071
1531 -1.72117773874021e-17 1.1359810203331682e-22 0.08574735962659784
1541 -1.7211806644582815e-17 1.2617431763309604e-22 0.0952402759911655
1551 -1.721183708346514e-17 1.277443996660971e-22 0.09642542245327379
1561 -1.721186846376458e-17 1.4430850505919257e-22 0.10892852133091227
1571 -1.7211901803706113e-17 1.499086515352242e-22 0.11315568503564628
1581 -1.721193703302844e-17 1.795466240130314e-22 0.13552734300500557
1591 -1.7211973977372946e-17 2.1466250654672836e-22 0.16203389684988553
1601 -1.7212014178027032e-17 2.279073770315957e-22 0.17203153459510545
1611 -1.721205705910009e-17 2.197480955775836e-22 0.16587265668597795
1621 -1.7212099921667176e-17 1.8981845229883323e-22 0.14328083657822557
1631 -1.721214104140062e-17 2.1700892369700424e-22 0.16380504506114452
1641 -1.7212178607839708e-17 2.1204950285234794e-22 0.16006152087284717
1651 -1.7212213375989997e-17 1.9265276757312736e-22 0.14542026537826644
1661 -1.7212246854576387e-17 1.6443471720127915e-22 0.1241204085154583
1671 -1.7212280186465048e-17 1.295643461911736e-22 0.0977991743592796
1681 -1.7211204599240515e-17 1.2882856665387197e-22 0.097243785215785
1691 -1.7211236937214633e-17 1.5611824124510164e-22 0.11784287533597648
1701 -1.7211269981000617e-17 1.442769609263112e-22 0.10890471084413587
1711 -1.7210196692437343e-17 1.5229366090730106e-22 0.1149559638491101
1721 -1.721023327653323e-17 1.488944743549264e-22 0.11239015274375483
1731 -1.721027189403996e-17 1.623508568846165e-22 0.1225474463199098
1741 -1.7210311453561883e-17 1.8571673728712617e-22 0.14018473527107952
1751 -1.7210350237359028e-17 1.6698739559250968e-22 0.12604724908854897
1761 -1.7210389329454876e-17 1.7710015414137126e-22 0.13368067190622832
1771 -1.7210428822510307e-17 1.825007684674259e-22 0.13775722257504974
1781 -1.7210469511926943e-17 1.8581747886941835e-22 0.14026077813210927
1791 -1.720940320406753e-17 1.8012016918906478e-22 0.1359602726366733
1801 -1.7209446339427246e-17 1.8352010196860105e-22 0.13852664701736192
1811 -1.7209488752896645e-17 1.9442135894759858e-22 0.14675525282880328
1821 -1.7209532070971847e-17 2.0484369749709896e-22 0.15462235620252035
1831 -1.7209576015328828e-17 2.038902362770762e-22 0.15390265419465293
1841 -1.7209618877849203e-17 2.045645109493867e-22 0.1544116175644525
1851 -1.72096603890997e-17 2.2237065264776204e-22 0.16785224384643874
1861 -1.7209701806726373e-17 2.174617854555187e-22 0.1641468791179942
1871 -1.7209744482979364e-17 1.56828599382923e-22 0.11837907562116771
1881 -1.7209788132855645e-17 1.7029801517361515e-22 0.12854620710568776
1891 -1.720982823764914e-17 1.7379067937399375e-22 0.1311825780298866
1901 -1.7209864728407932e-17 1.6576786783286704e-22 0.1251267118303646
1911 -1.7209902795083485e-17 1.6868763352133048e-22 0.12733064124496565
1921 -1.7209943785030913e-17 1.9165722483879683e-22 0.14466879894232854
1931 -1.7209987299884098e-17 1.7151437067582276e-22 0.1294643498458807
1941 -1.721003157988737e-17 1.887212695740162e-22 0.142452649134976
1951 -1.721007517734501e-17 2.0458914955869195e-22 0.15443021554852956
1961 -1.721011960014048e-17 2.158927738014303e-22 0.162962540610983
1971 -1.7210167053545897e-17 2.3218222684749714e-22 0.17525832340541753
1981 -1.7210218433433845e-17 2.5015235841998945e-22 0.18882273431460556
1991 -1.7210270790473393e-17 2.647663578822455e-22 0.19985383294251624
2001 -1.7210321469633446e-17 2.701134582350628e-22 0.20388998960979984
2011 -1.7210372692786645e-17 2.5860071449199273e-22 0.19519981468296554
2021 -1.7210427778566923e-17 3.0164110922723723e-22 0.22768803534664647
2031 -1.7210485957322126e-17 3.330462105939697e-22 0.2513935768372356
2041 -1.7210545441631197e-17 3.700233669755101e-22 0.2793050777290988
2051 -1.7210604471061767e-17 3.5584310682580778e-22 0.2686013789446013
2061 -1.721066100038233e-17 2.686264332898571e-22 0.2027675372055081
2071 -1.7210711798299484e-17 2.494327909448351e-22 0.18827958253686225
2081 -1.7210758641273254e-17 2.1004568735848783e-22 0.15854897898436582
2091 -1.721080479462008e-17 1.6998907691994456e-22 0.12831301096010309
2101 -1.721084812686993e-17 1.8331655735948989e-22 0.13837300525323815
2111 -1.7210888257336012e-17 1.7187028691626911e-22 0.12973300642834323
2121 -1.7210924319580124e-17 1.1993723173276245e-22 0.09053233071615523
2131 -1.7210958788321245e-17 1.2599357307018798e-22 0.09510384440684479
2141 -1.7210994255311367e-17 1.2726043842012385e-22 0.09606011354176015
2151 -1.721103226236861e-17 1.289102131219313e-22 0.09730541449421143
2161 -1.7211070886055753e-17 1.3816686970718582e-22 0.10429262508090717
2171 -1.7211110323069288e-17 1.591648328729319e-22 0.12014253689080005
2181 -1.721115182825808e-17 1.7356827597646544e-22 0.1310147010691919
2191 -1.7211196363523248e-17 2.0113358791956668e-22 0.15182185078469707
2201 -1.7210138548027437e-17 2.056395514952918e-22 0.15522309140647025
2211 -1.721019114101172e-17 2.3054414510470887e-22 0.17402184865995537
2221 -1.721024282726029e-17 2.5550271956926198e-22 0.19286135233187046
2231 -1.721029392608502e-17 2.515675475866597e-22 0.18989096285224918
2241 -1.721034478304185e-17 2.5180347798234584e-22 0.1900690504093794
2251 -1.7210394611518258e-17 2.0812224217378685e-22 0.1570971030901169
2261 -1.7210441976381967e-17 2.2460272347972296e-22 0.16953707992128847
2271 -1.7210487080616535e-17 2.218108852798539e-22 0.1674297141303245
2281 -1.7210533342814285e-17 2.0809156517321785e-22 0.15707394714161976
2291 -1.7210583398722482e-17 2.1165626125072526e-22 0.15976468995374793
2301 -1.7210634956114632e-17 2.4880274935934027e-22 0.18780400766858416
2311 -1.721068563593158e-17 2.493041541135234e-22 0.18818248347941077
2321 -1.7210733973098517e-17 2.4897387102601505e-22 0.18793317559330847
2331 -1.7209677029588677e-17 2.3124891140782835e-22 0.174553828055426
2341 -1.720973152378031e-17 2.563362926599226e-22 0.19349055907300922
2351 -1.7209787056502163e-17 2.8235423214393714e-22 0.2131297042149284
2361 -1.7209843562526683e-17 2.8729754901851326e-22 0.21686107262870868
2371 -1.720989974304726e-17 3.078377292319072e-22 0.23236543571249035
2381 -1.720995305984984e-17 2.686046070010794e-22 0.2027510620479162
2391 -1.721000266865576e-17 2.0094977463308036e-22 0.1516831028329411
2401 -1.720894137218015e-17 1.9002586483278981e-22 0.14343739797161068
2411 -1.7208988057685476e-17 1.8592617829278286e-22 0.14034282781761992
2421 -1.7209035261699685e-17 1.960435961196177e-22 0.14797976760236844
2431 -1.7209079708520844e-17 1.759456329618916e-22 0.13280920362461623
2441 -1.7209121090573425e-17 1.6474714607850503e-22 0.12435623949162518
2451 -1.720916201111208e-17 1.4952839987824124e-22 0.11286865932838258
2461 -1.7209204262695702e-17 1.5003293741958602e-22 0.11324949986381795
2471 -1.7209247008402283e-17 1.6544253287757876e-22 0.12488113894744773
2481 -1.7209290628271725e-17 1.9849753036952726e-22 0.1498320730446311
2491 -1.7209337431279167e-17 2.175134487639163e-22 0.16418587618049238
2501 -1.7209388350354566e-17 2.175420124150516e-22 0.16420743690749667
2511 -1.7209443382718052e-17 2.588648568103961e-22 0.19539919747161544
2521 -1.720950209650625e-17 2.6626254576321667e-22 0.20098320181402224
2531 -1.7209561171222275e-17 3.1173334053980436e-22 0.23530596357171224
2541 -1.7209619514019667e-17 2.896581115278128e-22 0.21864289819430316
2551 -1.7209677585194654e-17 2.733939639785327e-22 0.20636621677123543
2561 -1.7209733568964978e-17 2.4476409882048703e-22 0.18475550937536764
2571 -1.7209786034199838e-17 2.5167398231560496e-22 0.18997130307639262
2581 -1.7209834511002738e-17 2.6130572297331495e-22 0.19724163871778
2591 -1.7209881938208176e-17 2.321859576996717e-22 0.17526113956798892
2601 -1.720993038803535e-17 1.9840746625004082e-22 0.14976408986265158
2611 -1.7209979549315057e-17 2.002011311341639e-22 0.15111800357349328
2621 -1.7210027716485864e-17 2.1410468876929317e-22 0.16161283874493748
2631 -1.7210074647206324e-17 1.8878241287486005e-22 0.14249880198887382
2641 -1.721011996693442e-17 1.8436863443496824e-22 0.13916714555779608
2651 -1.721016320571015e-17 1.7933063052340266e-22 0.13536430444097425
2661 -1.7210204149296424e-17 1.679502487225955e-22 0.1267740404005099
2671 -1.7210243744819235e-17 1.4037341131294783e-22 0.10595819090651255
2681 -1.721028326053124e-17 1.2905754304087389e-22 0.09741662367215723
2691 -1.7210324634152708e-17 1.4703091946191394e-22 0.11098348389335291
2701 -1.7210367438697353e-17 1.6774282819223295e-22 0.12661747297119033
2711 -1.7210411284091043e-17 1.9830276581761563e-22 0.14968505873914223
2721 -1.7210457271363006e-17 2.1969936038394526e-22 0.16583586985503115
2731 -1.7210507594743265e-17 2.418729474273999e-22 0.1825731789156098
2741 -1.72094566189445e-17 2.714862229763619e-22 0.20492619487950023
2751 -1.720951753881414e-17 3.1036528063654135e-22 0.23427330965922505
2761 -1.7209577856581266e-17 2.8818695010717447e-22 0.2175324200688213
2771 -1.720963602560519e-17 2.816560593470208e-22 0.21260270180179708
2781 -1.7209693101368864e-17 3.169092165771633e-22 0.23921287483179599
2791 -1.720975131914147e-17 2.9265598929654783e-22 0.22090578902215266
2801 -1.7208703299600436e-17 3.0174577061585554e-22 0.22776703699868323
2811 -1.720876283416773e-17 2.9625228637882675e-22 0.22362038524971828
2821 -1.7208817340356694e-17 2.8422969633835986e-22 0.21454536257424506
